# Excitation multiplet: (1, 3, 1, 1) , index=1
# 1 energy | 2 spectral function
-2.8825887499672516	0.0
-1.4412943749836258	0.017080593664874473
-0.7206471874918129	0.12367869620523615
-0.36032359374590645	0.2510736899891208
-0.18016179687295322	0.41104744680434924
-0.09008089843647661	0.5450454490656724
-0.045040449218238306	0.624594141815918
-0.022520224609119153	0.6631275950394289
-0.011260112304559576	0.6781753241148603
-0.005630056152279788	0.6824396377784755
-0.002815028076139894	0.6814214256270337
-0.001407514038069947	0.6789279770280258
-0.0007037570190349735	0.6758117352498451
-0.00035187850951748676	0.6716034674714882
-0.00017593925475874338	0.6669692556002953
-8.796962737937169e-5	0.6621673901030087
-4.3984813689685845e-5	0.6573054983612173
-2.1992406844842923e-5	0.6524326608271003
-1.0996203422421461e-5	0.6475722907512517
-5.498101711210731e-6	0.6427357629196961
-2.7490508556053653e-6	0.6379794773637255
-1.3745254278026827e-6	0.6323994524406276
1.9438725018252344e-6	0.5977256580946739
3.887745003650469e-6	0.602193943758376
7.775490007300937e-6	0.6067047202965211
1.5550980014601875e-5	0.6112566953776429
3.110196002920375e-5	0.6158585827371524
6.22039200584075e-5	0.6205273019801658
0.000124407840116815	0.625295640992993
0.00024881568023363	0.6302264537937416
0.00049763136046726	0.6354367298075397
0.00099526272093452	0.6411165470067036
0.00199052544186904	0.647466681597008
0.00398105088373808	0.6547984367595443
0.00796210176747616	0.6631699461826832
0.01592420353495232	0.673081424806506
0.03184840706990464	0.6886395471232635
0.06369681413980928	0.7045134731594517
0.12739362827961856	0.6830406351258634
0.2547872565592371	0.5403103858965203
0.5095745131184742	0.2923527588137381
1.0191490262369485	0.11384694246463531
2.038298052473897	0.007699433412353877
