# 1 temperature | 2 magnetic susceptibility | 3 entropy | 4 heat capacity | 5 free energy | 6 number of particles | 7 energy | 8 partition function
2.0749886691045426e-20	2.699535039951684e-10	1.776210289961e-9	1.000000000699728	-7.869314089248292e-10	0.9999999999999574	9.892786589915659e-10	6.087969239843005e-9
3.280845156705906e-20	4.268416731179059e-10	2.8085045400416675e-9	1.000000001106365	-1.244250480425535e-9	0.9999999999999716	1.5642540596161325e-9	9.625926722378608e-9
5.187471672761357e-20	6.749038550246667e-10	4.440706025121699e-9	1.0000000017493142	-1.9673351836502206e-9	0.9999999999999716	2.4733703973822685e-9	1.521993198139171e-8
8.202112891764765e-20	1.0671244998761154e-9	7.021421666308925e-9	1.0000000027658795	-3.1106401898739477e-9	0.9999999999999716	3.910781476434977e-9	2.4064860326689086e-8
1.2968679181903392e-19	1.687274986394982e-9	1.1101853658601613e-8	1.0000000043732058	-4.918365714701167e-9	0.9999999999999858	6.1834874998112355e-9	3.8049892125968654e-8
2.0505282229411913e-19	2.6678141917813036e-9	1.7553548392612583e-8	1.0000000069146222	-7.77661490758419e-9	0.9999999999999716	9.77693281889458e-9	6.016206377523758e-8
3.242169795475848e-19	4.218182192428088e-9	2.7754551545911e-8	1.0000000109329616	-1.2295889639801771e-8	0.9999999999999432	1.5458661906109228e-8	9.512438303715953e-8
5.126320557352978e-19	6.669529761804682e-9	4.388373886499153e-8	1.0000000172865275	-1.944146399424085e-8	0.9999999999999432	2.444227531483989e-8	1.5040447287617553e-7
8.10542448868962e-19	1.054544940259916e-8	6.938622743035694e-8	1.0000000273324097	-3.0739590872741474e-8	0.9999999999999147	3.8646636113526256e-8	2.3780985713983682e-7
1.2815801393382446e-18	1.6673815605994236e-8	1.0970921771047415e-7	1.0000000432163412	-4.860350433233407e-8	0.9999999999998863	6.110571360018469e-8	3.7600992897068863e-7
2.0263561221724046e-18	2.636361301489032e-8	1.7346547798169354e-7	1.0000000683310422	-7.684883618352956e-8	0.9999999999998721	9.661664179816398e-8	5.945235006521443e-7
3.2039503483456116e-18	4.1684528773178187e-8	2.742729741100902e-7	1.000000108040783	-1.2150864847626508e-7	0.9999999999998863	1.5276432563382514e-7	9.400239733281524e-7
5.065890305431012e-18	6.590689538565897e-8	4.3269690674918593e-7	1.0000001634740212	-1.9207596668735505e-7	0.9999999999998721	2.406209398397863e-7	1.4860074362132991e-6
8.00987587086403e-18	1.0416793072565156e-7	6.795760709721321e-7	1.00000022417124	-3.0347694446319906e-7	0.9999999999998437	3.7609912606484386e-7	2.347610212893869e-6
1.2664725763577531e-17	1.646692566747987e-7	1.0723428292003234e-6	1.0000003385238097	-4.79732485736406e-7	0.9999999999998721	5.926103439080066e-7	3.7106761077154715e-6
2.0024689677160073e-17	2.6038184836041367e-7	1.699638307428586e-6	1.0000005663526756	-7.587210002490963e-7	0.9999999999998721	9.409173067354004e-7	5.868767095407179e-6
3.166181440894383e-17	4.1171130582551285e-7	2.6898896874349987e-6	1.000000914614078	-1.1997636537586231e-6	0.9999999999998579	1.4901260343425093e-6	9.280507738296251e-6
5.006172419290018e-17	6.509711574786969e-7	4.260648529097466e-6	1.0000015023620152	-1.897362653657808e-6	0.9999999999998579	2.3632858761057918e-6	1.4677319521538834e-5
7.915453602235957e-17	1.0292671341893822e-6	6.747223344039099e-6	1.0000024541085197	-3.000508181472128e-6	0.9999999999998437	3.7467151621228822e-6	2.321138335048545e-5
1.2515431048225045e-16	1.6277003015985336e-6	1.0683129241684242e-5	1.000003991055319	-4.744943808532298e-6	0.9999999999998579	5.938185432707854e-6	3.670693334534292e-5
1.978863400558989e-16	2.5739578895511706e-6	1.6908820734240493e-5	1.0000064399199036	-7.503256743923714e-6	0.9999999999998721	9.405563990538823e-6	5.804610638904251e-5
3.1288577620562614e-16	4.0701411926913345e-6	2.675329666468329e-5	1.000010317796795	-1.1864583279397323e-5	0.9999999999998579	1.4888713385508012e-5	9.178689185240785e-5
4.947158501397472e-16	6.4358142987108735e-6	4.231879588756371e-5	1.0000164492755388	-1.8760440469556272e-5	0.9999999999998295	2.3558355417341303e-5	0.00014513612153699285
7.822144405140653e-16	1.017627278981914e-5	6.69299673083934e-5	1.0000261439341582	-2.9663817782576984e-5	0.9999999999998153	3.7266149525816417e-5	0.00022948998881489047
1.2367896253493683e-15	1.609045414818766e-5	0.00010584359429266499	1.0000414715153034	-4.6903528506891945e-5	0.9999999999998295	5.8940065785551e-5	0.00036286738504465177
1.9555361012851634e-15	2.5441600815412357e-5	0.00016737115998433083	1.0000657061627862	-7.416233868129396e-5	0.9999999999998295	9.320882130303687e-5	0.0005737638528238165
3.0919740633734206e-15	4.022704331474447e-5	0.0002646557899468327	1.0001040282609293	-0.0001172620954688064	0.9999999999998153	0.00014739369447824835	0.0009072347182659257
4.888840253212909e-15	6.360490084544868e-5	0.00041847442639220134	1.0001646182806605	-0.0001854114774522131	0.9999999999998153	0.00023306294893998825	0.001434549968024612
7.729935158433552e-15	0.00010056837984978584	0.0006616860981227823	1.0002604218144948	-0.00029316357128239545	0.9999999999998153	0.00036852252684060893	0.0022683961578877643
1.222210063303227e-14	0.0001590127405787789	0.001046224061297174	1.0004118827193917	-0.0004635508847083969	0.9999999999998153	0.0005826731765885551	0.003587140317826254
1.9324837896083877e-14	0.0002514197950340691	0.0016542463084898706	1.0006513895908384	-0.0007329455942968188	0.999999999999801	0.0009213007141930518	0.0056727945622654374
3.055525158258068e-14	0.0003975255187875226	0.002615502147518267	1.0010299419225939	-0.0011589904570348253	0.9999999999998153	0.001456511690483886	0.008972419463734838
4.83120947402097e-14	0.0006285194419455298	0.0041353469744902505	1.0016284614231041	-0.0018325276006585511	0.9999999999998153	0.0023028193738316993	0.014192755142310887
7.638812895645169e-14	0.0009936979266562118	0.006537303043482989	1.0025734476094026	-0.002897958062857864	0.999999999999801	0.0036393449806253475	0.022457729420533923
1.2078023685052426e-13	0.001570825572869028	0.010333077935067436	1.0040651647623504	-0.004581495042645045	0.999999999999801	0.005751582892421947	0.03554276225749753
1.9097032239112925e-13	0.00248241012724848	0.016321034086951514	1.0064079906291559	-0.007244589191137685	0.999999999999801	0.009076444895814051	0.056283406426469895
3.0195059212631063e-13	0.003919809747102598	0.025748643244555502	1.0100646706953222	-0.011442047207463446	0.9999999999997726	0.0143065960370925	0.08913892628176256
4.774258059778231e-13	0.006178142727003677	0.040475749455699095	1.0156488984269312	-0.018060400659348108	0.9999999999997726	0.02241534879635143	0.14116091559042054
7.548764803157765e-13	0.009694425554513053	0.06317537540675788	1.023846211151175	-0.028353547451070327	0.9999999999997513	0.03482182795568778	0.22317873084801398
1.1935645149445578e-12	0.01507132225335972	0.09706421167579204	1.0349067359267443	-0.04422750093229899	0.99999999999973	0.0528367107434935	0.3504046909365375
1.8871912007894414e-12	0.02301009938015597	0.14515042511780418	1.0478641521910739	-0.06757868240066767	0.99999999999973	0.07757174271713696	0.544425397190345
2.9839112873613942e-12	0.034107635161858774	0.20802659404176005	1.0598234514609677	-0.10085269648713613	0.9999999999997655	0.10717389755462325	0.8208873705864228
4.717978001973603e-12	0.04847646195002531	0.2824429841926488	1.0669508111988169	-0.14328422270079644	0.9999999999997868	0.13915876149185236	1.2021001618959364
7.459778218403486e-12	0.06551868960243307	0.36084469287842014	1.0666584152951322	-0.19567226760764322	0.9999999999997726	0.16517242527077647	1.6640221982511072
1.1794945004934008e-11	0.08396049527447658	0.4349237798997754	1.0596906257179857	-0.24916325457144994	0.9999999999997655	0.1857605253283261	2.1973815249632356
1.8649445546008714e-11	0.10237742500423341	0.4982440554030516	1.0489125383106863	-0.3073318188288825	0.9999999999997655	0.19091223657416956	2.7563650652797342
2.948736251233502e-11	0.1195880301421886	0.5486028471504163	1.0376812009736633	-0.35378036145627245	0.9999999999997655	0.19482248569414384	3.2693200914608394
4.662361386502178e-11	0.13495353044815095	0.5865096399163265	1.027845126593251	-0.40330520146655324	0.9999999999997655	0.1832044384497724	3.7979869340254844
7.371840628083755e-11	0.1482546451716953	0.6142969554713424	1.0201862863166347	-0.4351904999082823	0.9999999999997584	0.17910645556306015	4.181569844835012
1.1655903466255446e-10	0.15958879755493804	0.634303026076966	1.0144992790292628	-0.47208044789824877	0.9999999999997584	0.16222257817871766	4.619060188327557
1.8429601570209385e-10	0.16917043771127238	0.6487374968257864	1.010457784309969	-0.49255254803328263	0.9999999999997513	0.15618494879250422	4.8840527615070535
2.9139758665638616e-10	0.17726756786988768	0.659153201635359	1.0075796789206994	-0.5188962015280434	0.9999999999997442	0.14025700010731623	5.225645889287952
4.607400392552347e-10	0.1841259243838781	0.6667802974109005	1.0055662238747798	-0.5323873906661594	0.9999999999997442	0.1343929067447418	5.411739732943895
7.284939666409654e-10	0.18996677212622648	0.672399381505504	1.0041251354473686	-0.5512505293858645	0.9999999999997513	0.12114885211964	5.673902017645716
1.1518500981380867e-9	0.1949701469471447	0.6766182446180253	1.0031049653715518	-0.5605924860195817	0.9999999999997513	0.11602575859844322	5.80973710096676
1.8212349166024135e-9	0.19928592694453318	0.6798065310520132	1.0023585636910928	-0.5743813749813294	0.9999999999997584	0.10542515607068337	6.011688322345236
2.8796252453452165e-9	0.20303308120564462	0.68226414660628	1.0018187795765643	-0.5811585891765754	0.9999999999997442	0.10110555742970484	6.114459682838662
4.553087291506034e-9	0.2063085732494575	0.684167968435359	1.0014130368430774	-0.5915026429453665	0.9999999999997229	0.09266532548999185	6.272093661922684
7.1990631133630415e-9	0.20918974994464296	0.6856720168791632	1.0011132842904824	-0.5966128357719258	0.9999999999997087	0.08905918110723743	6.352185997140531
1.1382718228765085e-8	0.21173944400778694	0.6868636275145259	1.0008818855225872	-0.6045747859798247	0.9999999999997158	0.08228884153470117	6.477278896461074
1.7997657783407604e-8	0.21400858712385906	0.6878262141107458	1.000707838464595	-0.6085508516683329	0.9999999999997229	0.07927536244241273	6.541235551508212
2.8456795571912707e-8	0.21603866585034892	0.6886045887572703	1.0005703968871442	-0.6148254449308563	0.99999999999973	0.07377914382641393	6.642201285579368
4.499414445851902e-8	0.21786400998546995	0.689246629412803	1.000465689480005	-0.6179999054253118	0.9999999999997158	0.07124672398749121	6.694327637083367
7.114198892978178e-8	0.2195126903866772	0.6897765614251483	1.0003820483519033	-0.6230498326913763	0.9999999999997016	0.06672672873377206	6.77714807718465
1.1248536114629754e-7	0.22100848245488547	0.6902239654283098	1.0003188644913812	-0.6256403153371388	0.9999999999997016	0.06458365009117184	6.820393597591462
1.7785497232445447e-7	0.2223709056271962	0.6906032697150168	1.0002688457490985	-0.6297821447366205	0.9999999999996945	0.0608211249783972	6.889371774255226
2.812134028657438e-7	0.22361694349756012	0.6909353263095648	1.0002337304589672	-0.6319386149872996	0.9999999999996803	0.05899671132226558	6.9258499362559895
4.446374308111361e-7	0.22476064014315938	0.691231745155978	1.0002105618537334	-0.635397409728041	0.9999999999996945	0.055834335427936255	6.984169734681915
7.030335071643596e-7	0.2258146385733561	0.6915116273211313	1.000203029712813	-0.6372316619655485	0.9999999999996874	0.054279965355583215	7.015509772330674
1.1115935770278402e-6	0.22678958885984946	0.6917903989581875	1.0002119657572501	-0.6401790173742743	0.9999999999996874	0.05161138158391276	7.065679623939104
1.757583767910899e-6	0.22769557433373122	0.6920945705178023	1.0002457516985324	-0.6417888142296833	0.9999999999996945	0.05030575628811951	7.0933455750400505
2.778983942569601e-6	0.228541443317541	0.6924555079591275	1.0003135379932957	-0.6443773029942976	0.999999999999698	0.04807820496482962	7.1376542160540435
4.393959419777248e-6	0.22933603024317778	0.6929253226684859	1.0004347379173126	-0.645877975452136	0.9999999999996909	0.0470473472163504	7.163402332221281
6.947459856424001e-6	0.23008717307106735	0.693579905276303	1.0006386776081322	-0.6482896482908744	0.9999999999996945	0.04529025698542899	7.2046233287934385
1.0984898549443119e-5	0.23080170099495856	0.6945456492262898	1.000980227780515	-0.6498775734612519	0.9999999999997087	0.04466807576503884	7.2314649301166245
1.7368649641060006e-5	0.23148144861402364	0.6960415450984287	1.0015784767209785	-0.6524304219159056	0.9999999999997229	0.04361112318252314	7.274462102147908
2.7462246373607793e-5	0.23211262384915854	0.6985520226546047	1.0028744793212718	-0.6545784141899742	0.9999999999997087	0.04397360846463072	7.309739364750424
4.342162410265001e-5	0.2326023757521647	0.7041835678286104	1.007946561581881	-0.6583118226967573	0.9999999999996803	0.04587174513185288	7.369999831210201
6.865561593401949e-5	0.23241757879657665	0.7230963696462309	1.0282034883212163	-0.6646743548550202	0.999999999999531	0.058422014791210675	7.474584821364081
0.00010855406025662504	0.2296835371157845	0.7807728040482305	1.0741701343959351	-0.6832372213646734	0.9999999999991012	0.09753558268355711	7.756922503528088
0.00017163903983504874	0.22125386171559303	0.8983997855760659	1.123628451225548	-0.7278335149888977	0.9999999999983373	0.17056627058716822	8.514774560422628
0.00027138515064156256	0.20578298669279244	1.0539754079986743	1.1335169774616465	-0.8089718972747386	0.9999999999976019	0.24500351072393678	9.933921746365673
0.0004290975995876218	0.1863835990426616	1.193865657459296	1.1002959264939693	-0.9160685988505053	0.9999999999973426	0.27779705860879034	11.943749033779255
0.0006784628766039063	0.16807027525540347	1.286627609574884	1.058003035697408	-1.0268465560690037	0.9999999999976126	0.25978105350588	14.353462397633086
0.0010727439989690545	0.15374697209270582	1.3370460099802264	1.0286967106258604	-1.122696299152396	0.9999999999981455	0.21434971082783028	16.48443764411417
0.001696157191509766	0.14367979809127668	1.3618645822925268	1.0130135960429285	-1.1971274539786454	0.9999999999986855	0.16473712831388188	18.45948710753334
0.002681859997422636	0.13697620524910403	1.373738994949004	1.0054677871288218	-1.2511799554580163	0.9999999999991243	0.12255903949098723	19.845904880307657
0.004240392978774415	0.13262711445232112	1.3794961731356223	1.0019452330547527	-1.289853151793098	0.9999999999994404	0.089643021342525	21.01064708922727
0.006704649993556591	0.12983988868079516	1.3823848590278267	1.0002661493159204	-1.3161131897631924	0.9999999999996589	0.06627166926463457	21.748222011479577
0.010600982446936039	0.12806455745671985	1.3838989780886308	0.9994328772865829	-1.3355517404199104	0.9999999999998046	0.048347237668719956	22.37918886619472
0.016761624983891478	0.12693717735413224	1.3847291118509322	0.9989990312076937	-1.3480336007210028	0.9999999999998952	0.03669551112992919	22.751991029466637
0.026502456117340093	0.12622267952096344	1.3852057738420651	0.9987741342210175	-1.3583042679110378	0.9999999999999432	0.026901505931026914	23.101148485917115
0.04190406245972869	0.12577020726694638	1.3854890554494315	0.998655203136603	-1.3644154704379434	0.9999999999999662	0.021073585011487594	23.290657967251107
0.06625614029335024	0.1254840544774078	1.385670586966842	0.9986269718269852	-1.370182329203677	0.9999999999999769	0.015488257763164093	23.4862701084704
0.10476015614932176	0.1253048011502314	1.3858501443928928	0.9989115356371883	-1.3733237413462915	0.999999999999984	0.012526403046600798	23.570086175984905
0.16564035073337557	0.12519462831242	1.3860805011245456	0.9995944769462177	-1.376717408359065	0.999999999999992	0.009363092765480419	23.611298767622888
0.2619003903733043	0.12512492991482949	1.3862278207604142	1.0000341219385596	-1.3783966853026048	0.9999999999999964	0.007831135457808891	23.116750168752112
0.414100876833439	0.12507926946439485	1.3862559809697013	1.0000339777906702	-1.3804046851756482	0.9999999999999991	0.0058512957940524135	21.319240090308455
0.6547509759332608	0.12500707395321353	1.3863005061700675	1.0000327742015944	-1.3835796117457202	1.000000000000003	0.0027208944243461985	18.47712710781351
