# 1 temperature | 2 magnetic susceptibility | 3 entropy | 4 heat capacity | 5 free energy | 6 number of particles | 7 energy | 8 partition function
2.0749886691045426e-20	0.29064152819282485	3.6453819821566995	2.5384973408347458	-2.0650053381652045	100.7450296453107	1.580376643991495	8.025542588557474
3.280845156705906e-20	0.2906415283497126	3.6453819831889787	2.538497341866983	-2.065005338622523	100.11257411327702	1.5803766445664555	8.025542592095421
5.187471672761357e-20	0.2906415285977739	3.6453819848211557	2.538497343499094	-2.065005339345607	99.11257411327702	1.5803766454755483	8.025542597689409
8.202112891764765e-20	0.2906415289899925	3.6453819874018474	2.538497346079659	-2.0650053404888986	98.112574113277	1.5803766469129488	8.025542606534227
1.2968679181903392e-19	0.29064152961014167	3.645381991482269	2.5384973501598793	-2.0650053422966153	97.112574113277	1.580376649185654	8.025542620519207
2.0505282229411913e-19	0.2906415305906812	3.6453819979339666	2.53849735661128	-2.065005345154863	96.11257411327702	1.580376652779103	8.025542642631379
3.242169795475848e-19	0.2906415321410499	3.6453820081349786	2.5384973668118356	-2.0650053496741316	95.11257411327702	1.580376658460847	8.025542677593664
5.126320557352978e-19	0.29064153459239717	3.6453820242641783	2.5384973829403354	-2.065005356819713	94.11257411327702	1.5803766674444653	8.025542732873808
8.10542448868962e-19	0.29064153846831564	3.645382049766675	2.538497408441766	-2.0650053681178515	93.11257411327699	1.5803766816488234	8.025542820279274
1.2815801393382446e-18	0.29064154459668123	3.64538209008967	2.538497448763084	-2.065005385981774	92.11257411327696	1.5803767041078964	8.025542958479416
2.0263561221724046e-18	0.29064155428647903	3.645382153845934	2.5384975125166847	-2.0650054142271097	91.11257411327696	1.5803767396188242	8.02554317699301
3.2039503483456116e-18	0.29064156960739507	3.6453822546534305	2.5384976133197545	-2.0650054588869162	90.11257411327696	1.5803767957665145	8.025543522493434
5.065890305431012e-18	0.2906415938297614	3.6453824130773613	2.5384977540368885	-2.0650055294542313	89.11257411327696	1.58037688362313	8.02554406847688
8.00987587086403e-18	0.29064163209079696	3.6453826599565273	2.5384979081166223	-2.0650056408552104	88.11257411327693	1.580377019101317	8.025544930079667
1.2664725763577531e-17	0.2906416925921239	3.6453830527232904	2.538498198400312	-2.0650058171107504	87.11257411327695	1.5803772356125405	8.025546293145549
2.0024689677160073e-17	0.2906417883047163	3.645383680018769	2.5384987767432725	-2.0650060960992636	86.11257411327695	1.5803775839195051	8.025548451236522
3.166181440894383e-17	0.2906419396341738	3.645384670270146	2.538499660803916	-2.065006537141918	85.11257411327693	1.5803781331282283	8.025551862977172
5.006172419290018e-17	0.29064217889402527	3.6453862410289846	2.538501152800488	-2.065007234740918	84.11257411327693	1.5803790062880672	8.025557259788954
7.915453602235957e-17	0.29064255719000187	3.645388727603792	2.538503568806437	-2.065008337886445	83.11257411327693	1.5803803897173472	8.02556579385277
1.2515431048225045e-16	0.2906431556231682	3.645392663509674	2.538507470341779	-2.0650100823220683	82.11257411327695	1.5803825811876053	8.025579289402735
1.978863400558989e-16	0.29064410188075457	3.645398889201148	2.5385136867780096	-2.065012840635003	81.11257411327695	1.5803860485661452	8.025600628575777
3.1288577620562614e-16	0.29064559806405504	3.645408733677063	2.5385235307582015	-2.065017201961531	80.11257411327693	1.580391531715532	8.025634369361201
4.947158501397472e-16	0.2906479637371583	3.6454242991762826	2.5385390955007154	-2.0650240978187053	79.1125741132769	1.580400201357577	8.025687718590772
7.822144405140653e-16	0.2906517041956486	3.6454489103477163	2.5385637053658447	-2.065035001196015	78.11257411327692	1.5804139091517018	8.025772072458018
1.2367896253493683e-15	0.2906576183770085	3.645487823974715	2.5386026143897844	-2.0650522409067436	77.11257411327693	1.5804355830679715	8.025905449854289
1.9555361012851634e-15	0.290666969523678	3.6455493515404114	2.538664133977906	-2.0650794997169313	76.11257411327695	1.58046985182348	8.026116346322176
3.0919740633734206e-15	0.2906817549661781	3.6456466361703703	2.5387614145220505	-2.0651225994737286	75.11257411327693	1.5805240366966418	8.026449817187688
4.888840253212909e-15	0.2907051328237079	3.6458004548068113	2.5389152221259232	-2.06519074885571	74.11257411327693	1.5806097059511008	8.026977132437434
7.729935158433552e-15	0.2907420963027117	3.6460436664785467	2.5391584191416645	-2.065298500949535	73.11257411327693	1.580745165529012	8.027810978627258
1.222210063303227e-14	0.2908005406634414	3.646428204441735	2.539542902245727	-2.06546888826296	72.11257411327693	1.5809593161787747	8.029129722787182
1.9324837896083877e-14	0.29089294771789853	3.6470362266889382	2.540150889801563	-2.0657382829725526	71.11257411327693	1.5812979437163857	8.031215377031652
3.055525158258068e-14	0.29103905344165354	3.6479974825279684	2.541111843888406	-2.0661643278352946	70.11257411327695	1.5818331546926743	8.034515001933155
4.83120947402097e-14	0.291270047364812	3.649517327354942	2.542631184047832	-2.066837864978924	69.11257411327693	1.582679462376018	8.039735337611775
7.638812895645169e-14	0.29163522584952295	3.651919283423939	2.545030028967198	-2.0679032954411296	68.11257411327693	1.5840159879828095	8.04800031189005
1.2078023685052426e-13	0.29221235349573627	3.6557150583155247	2.5488167489905758	-2.0695868324209217	67.11257411327693	1.5861282258946026	8.061085344727053
1.9097032239112925e-13	0.2931239380501156	3.6617030144674088	2.5547640062193397	-2.072249926569419	66.11257411327693	1.5894530878979893	8.081825988896068
3.0195059212631063e-13	0.2945613376699693	3.6711306236250145	2.5640464788370996	-2.0764473845857507	65.11257411327692	1.5946832390392638	8.11468150875141
4.774258059778231e-13	0.2968196706498698	3.6858577298361617	2.578222026074481	-2.083065738037643	64.11257411327692	1.6027919917985192	8.166703498060135
7.548764803157765e-13	0.30033595347737807	3.70855735578722	2.599030882612394	-2.0933588848293683	63.11257411327692	1.6151984709578522	8.248721313317748
1.1935645149445578e-12	0.3057128501762235	3.7424461920562493	2.627107995323766	-2.1092328383105925	62.11257411327692	1.6332133537456572	8.375947273406242
1.8871912007894414e-12	0.31365162730301954	3.7905324054982543	2.6600003620318304	-2.132584019778956	61.11257411327692	1.6579483857192985	8.56996797966002
2.9839112873613942e-12	0.3247491630847227	3.853408574422195	2.6903590114054268	-2.165858033865428	60.11257411327694	1.687550540556767	8.846429953056127
4.717978001973603e-12	0.3391179898728879	3.9278249645730545	2.7084517951344296	-2.2082895600790784	59.11257411327695	1.7195354044939761	9.227642744365548
7.459778218403486e-12	0.3561602175252922	4.006226673258776	2.7077095489109326	-2.2606776049858937	58.112574113276935	1.7455490682728818	9.689564780720467
1.1794945004934008e-11	0.37460202319733127	4.080305760280057	2.6900218336101673	-2.3141685919496595	57.112574113276935	1.7661371683303977	10.222924107432283
1.8649445546008714e-11	0.39301895292708133	4.143626035783225	2.6626616874065125	-2.3723371562070383	56.112574113276935	1.7712888795761867	10.781907647748358
2.948736251233502e-11	0.4102295580650252	4.193984827530437	2.6341509674622783	-2.4187856988343515	55.11257411327693	1.775199128696086	11.294862673928865
4.662361386502178e-11	0.4255950583709698	4.2318916202961185	2.6091821188205815	-2.4683105388445217	54.11257411327693	1.7635810814515964	11.823529516492638
7.371840628083755e-11	0.43889617309448603	4.259678935850765	2.5897401731577254	-2.5001958372860726	53.112574113276935	1.7594830985646928	12.207112427300755
1.1655903466255446e-10	0.4502303254776836	4.279685006455792	2.575303720290915	-2.5370857852757545	52.112574113276935	1.742599221180038	12.644602770791055
1.8429601570209385e-10	0.45981196563394566	4.294119477203665	2.565044396699212	-2.5575578854103354	51.11257411327693	1.73656159179333	12.909595343966966
2.9139758665638616e-10	0.4679090957924467	4.304535182011737	2.557738333825523	-2.5839015389043647	50.11257411327692	1.7206336431073725	13.251188471742097
4.607400392552347e-10	0.47476745230625683	4.3121622777849105	2.5526271835467877	-2.59739272804132	49.11257411327692	1.714769549743591	13.437282315388881
7.284939666409654e-10	0.4806083000483209	4.317781361875786	2.5489689844047474	-2.616255866759207	48.112574113276935	1.70152549511658	13.699444600076333
1.1518500981380867e-9	0.48561167486879114	4.32200022498243	2.546379285376032	-2.6255978233900716	47.112574113276935	1.696402401592358	13.835279683374871
1.8212349166024135e-9	0.48992745486547307	4.32518851140713	2.544484546687029	-2.6393867123473047	46.11257411327694	1.685801799059825	14.037230904717731
2.8796252453452165e-9	0.49367460912546873	4.327646126946709	2.5431143061339263	-2.6461639265354053	45.112574113276935	1.6814822004113033	14.140002265154779
4.553087291506034e-9	0.4969501011675178	4.329549948752556	2.5420843292613506	-2.65650798029292	44.11257411327692	1.6730419684596352	14.297636244149794
7.1990631133630415e-9	0.4998312778599119	4.331053997159606	2.5413234081674037	-2.6616181731016404	43.11257411327691	1.6694358240579659	14.377728579226826
1.1382718228765085e-8	0.5023809719186393	4.332245607736838	2.5407360029526753	-2.669580123281312	42.11257411327691	1.662665484455526	14.50282147832458
1.7997657783407604e-8	0.5046501150277272	4.33320819424115	2.5402941848671725	-2.6735561889251747	41.112574113276914	1.6596520053159751	14.566778133019321
2.8456795571912707e-8	0.5066801937431751	4.3339865687423735	2.5399452896432155	-2.679830782117109	40.11257411327692	1.6541557866252643	14.667743866533298
4.499414445851902e-8	0.5085055378608383	4.334628609168173	2.539679489939029	-2.683005242499978	39.11257411327691	1.6516233666681952	14.719870217156558
7.114198892978178e-8	0.5101542182344427	4.335158540817281	2.5394671667945934	-2.6880551695896164	38.11257411327689	1.6471033712276641	14.802690655865318
1.1248536114629754e-7	0.511650010259007	4.33560594424611	2.5393067741583533	-2.690645651956415	37.112574113276885	1.6449602922896958	14.845936174070264
1.7785497232445447e-7	0.5130124333623104	4.335985247624716	2.5391798008059334	-2.6947874809148145	36.11257411327688	1.6411977667099025	14.914914347252564
2.812134028657438e-7	0.5142584711235638	4.336317302783431	2.5390906592993634	-2.6969439504680843	35.11257411327687	1.6393733523153478	14.951392503748675
4.446374308111361e-7	0.5154021675966443	4.336613719359606	2.539031843586132	-2.700402744106123	34.11257411327687	1.6362109752534828	15.009712293470974
7.030335071643596e-7	0.5164561657540663	4.336893597935225	2.539012719676416	-2.7022369946001144	33.11257411327687	1.6346566033351109	15.041052317358181
1.1115935770278402e-6	0.5174311156092677	4.337172363896739	2.5390353981248426	-2.7051843472521133	32.112574113276864	1.6319880166446254	15.091222147207782
1.757583767910899e-6	0.5183371004012189	4.337476526482515	2.539121154670654	-2.7067941397487534	31.112574113276867	1.630682386733762	15.118888063904986
2.778983942569601e-6	0.5191829683068009	4.337837449734918	2.5392932158050274	-2.709382621621552	30.112574113276878	1.6284548281133657	15.16319665052191
4.393959419777248e-6	0.5199775535276054	4.338307242009552	2.5396008590412213	-2.710883283182458	29.11257411327688	1.627423958827095	15.188944680679676
6.947459856424001e-6	0.5207286936599045	4.3389617891446965	2.5401185238965223	-2.7132949387915533	28.112574113276892	1.6256668503531433	15.230165541258405
1.0984898549443119e-5	0.5214432173216372	4.339927477006473	2.540985491923191	-2.714882836719209	27.112574113276906	1.6250446402872647	15.257006927554585
1.7368649641060006e-5	0.5221229582014187	4.341423284191156	2.542504056337347	-2.717435642098332	26.112574113276914	1.6239876420928234	15.300003759591768
2.7462246373607793e-5	0.5227541227799218	4.343933621504382	2.545793814484795	-2.7195835662599355	25.112574113276906	1.6243500552444468	15.335280484577687
4.342162410265001e-5	0.523243857829861	4.3495649448688045	2.5586690560837573	-2.7233168670554857	24.112574113276878	1.6262480778133184	15.395540100886757
6.865561593401949e-5	0.5230590342133546	4.368477395728821	2.610090836812856	-2.729679228843642	23.112574113276736	1.638798166885179	15.50012374622824
0.00010855406025662504	0.5203249503242806	4.426153274193137	2.726776400782853	-2.7482418257260823	22.112574113276306	1.6779114484670545	15.782459300434976
0.00017163903983504874	0.5118952079723404	4.543779372922719	2.8523251258379236	-2.7928376920465583	21.112574113275546	1.7509416808761609	16.540307983352037
0.00027138515064156256	0.49642422627568367	4.699353584102195	2.8774254415555385	-2.873975394926914	20.112574113274817	1.825378189175282	17.959449809887627
0.0004290975995876218	0.47702466681906786	4.839241548485785	2.7930913266749844	-2.981071007757105	19.11257411327457	1.8581705407286795	19.969268485209188
0.0006784628766039063	0.458711060951106	4.931999701529255	2.6857265709317444	-3.0918471939664713	18.11257411327484	1.8401525075627836	22.37896790850551
0.0010727439989690545	0.4443872802824737	4.982411673066123	2.6113257130280756	-3.187693984058768	17.11257411327536	1.7947176890073546	24.509919658772468
0.001696157191509766	0.43431934677387496	5.0072208115885335	2.5715095385766737	-3.262120360848755	16.112574113275894	1.7451004507397792	26.48493125992947
0.002681859997422636	0.4276148323567255	5.0190853445524635	2.5523578986073034	-3.31616627670563	15.112574113276327	1.7029190678468331	27.87129839251088
0.004240392978774415	0.4232649900640185	5.024835365674701	2.5434229286785186	-3.3548323663684965	14.11257411327664	1.6700029993062049	29.035982127659206
0.006704649993556591	0.4204772442121638	5.027719282533493	2.5391662729106117	-3.3810861446440024	13.112574113276855	1.6466331378894905	29.77351197009154
0.010600982446936039	0.4187010906835298	5.029225861338928	2.537059982615583	-3.4005147978955583	12.112574113276999	1.6287110634433688	30.404407549012205
0.016761624983891478	0.4175717160620597	5.030037453436734	2.5359793838712803	-3.4129757477192975	11.112574113277091	1.6170617057174363	30.777046936015324
0.026502456117340093	0.4168520801519069	5.030467005069401	2.535464464753149	-3.423184565159164	10.112574113277145	1.6072824399102368	31.12575903790323
0.04190406245972869	0.4163871555380935	5.030634536760485	2.53529191759241	-3.429165181938245	9.112574113277175	1.6014693548222394	31.314252296817997
0.06625614029335024	0.4160689101174954	5.030520166354352	2.5355396337761427	-3.434545706849509	8.11257411327719	1.5959744595048417	31.50708480323715
0.10476015614932176	0.41580242095798897	5.029548002868758	2.53316190518619	-3.4368353241821055	7.112574113277196	1.592712678686652	31.58421678877394
0.16564035073337557	0.41510596836598324	5.0164670957893245	2.4728319897460205	-3.436273151220287	6.112574113277202	1.5801939445690374	31.59804316994355
0.2619003903733043	0.41040636534667085	4.922817456436438	2.163081315011118	-3.415948691621696	5.112574113277205	1.5068687648147416	30.917270324090318
0.414100876833439	0.38995745894179423	4.589863721719068	1.4837417805942323	-3.319114521553759	4.112574113277207	1.2707492001653082	28.492289626286922
0.6547509759332608	0.35762489899228644	4.063417643135883	0.40961166391637943	-3.166006255180367	2.5314352831930194	0.8974113879555147	24.658058482785314
