# 1 temperature | 2 magnetic susceptibility | 3 entropy | 4 heat capacity | 5 free energy | 6 number of particles | 7 energy | 8 partition function
1.2801265602956365e-15	1.8940290841706897e-5	0.00011212026186768753	1.0000448839326452	-5.006870195689572e-5	1.0000000000026148	6.205155991056976e-5	0.0005584591650595883
1.8103723431241087e-15	2.5764079091328274e-5	0.00015694108770958337	1.0000566658476921	-7.071957011550722e-5	1.0000000000026432	8.622151759407615e-5	0.000790537372227007
2.560253120591273e-15	3.541437298065775e-5	0.00022032730749188545	1.0000733279917426	-9.992430794003582e-5	1.0000000000026432	0.00012040299955184963	0.0011187455203334196
3.6207446862482175e-15	4.906102142188118e-5	0.0003099335405831738	1.0000967902110491	-0.00014122346991296553	1.0000000000026432	0.0001687100706704303	0.0015828825048451733
5.120506241182546e-15	6.855560059515486e-5	0.0004376141277626644	1.0001338149906331	-0.0001996817636809034	1.0000000000026432	0.00023793236408109486	0.0022398151704123848
7.241489372496435e-15	9.612492778221515e-5	0.0006181729750522891	1.0001861502969964	-0.0002823561733413804	1.0000000000026574	0.0003358168017106866	0.0031689440792135315
1.0241012482365092e-14	0.00013510221194512617	0.0008732245336933175	1.0002594732403627	-0.00039924284565850954	1.0000000000026859	0.00047398168803458596	0.004482773691821151
1.448297874499287e-14	0.0001902267420963999	0.0012355867635616136	1.000368258560677	-0.000564696451777813	1.0000000000026716	0.0006708903117838005	0.0063430755085640556
2.0482024964730183e-14	0.00026828673566947625	0.0017511679763231314	1.000531867394241	-0.0007989367159249028	1.0000000000026432	0.0009522312603995609	0.008977008061275882
2.896595748998574e-14	0.0003784024401392583	0.002473559486393384	1.0007426861642257	-0.0011296704339205377	1.0000000000026432	0.0013438890524741787	0.012695778169664607
4.0964049929460367e-14	0.0005341722746346478	0.0034937407053385883	1.0010360265936935	-0.0015972540177533467	1.0000000000026716	0.0018964866875859077	0.017956036569794165
5.793191497997148e-14	0.0007550901719483583	0.004943049611007666	1.0014720340903176	-0.0022591916364467224	1.0000000000026432	0.002683857974561832	0.025408091916780506
8.192809985892073e-14	0.001067028627582789	0.006987466176576973	1.0020713790169717	-0.0031947803221883397	1.000000000002629	0.003792685854388411	0.035951813927255216
1.1586382995994296e-13	0.0015078005209878675	0.009877092068792948	1.0029166718295852	-0.004518187476340696	1.000000000002629	0.005358904592452696	0.050882255798844866
1.6385619971784147e-13	0.0021307065607549247	0.013955745031196898	1.0040977685706656	-0.006388044991134656	1.0000000000026148	0.007567700040061132	0.07202067779381949
2.317276599198859e-13	0.0030104581492252924	0.01970921655252944	1.0057506570251835	-0.009031706006914497	1.0000000000025864	0.010677510545615831	0.10196756659527217
3.2771239943568293e-13	0.004251424735871534	0.027812955896272307	1.0080687482647008	-0.01276031270860134	1.000000000002629	0.015052643187670522	0.14438152091694256
4.634553198397718e-13	0.005997831369907225	0.03917259692083608	1.0112577550751911	-0.018018278475695038	1.0000000000026148	0.021154318445139708	0.20440797680957878
6.554247988713659e-13	0.00844401296360936	0.054968063457463856	1.015537150687912	-0.02538019742775699	1.000000000002629	0.029587866029706644	0.2892056742294393
9.269106396795437e-13	0.011842363091672414	0.07663352807295176	1.0210657151135842	-0.03565070858756725	1.0000000000025864	0.04098281948538407	0.4081586559628434
1.3108495977427317e-12	0.016496914167090204	0.10567794241381456	1.0277633456095963	-0.04970726848221618	1.0000000000025864	0.05597067393159727	0.5740700856475947
1.8538212793590873e-12	0.022730182851902536	0.14327923018725652	1.0350588677376886	-0.06868641559736055	1.0000000000025722	0.07459281458989642	0.799454886502108
2.6216991954854635e-12	0.030806343306282125	0.18968478282870205	1.041830975596257	-0.0932355201140651	1.0000000000025437	0.09644926271463694	1.1021520705670085
3.707642558718175e-12	0.04083759360785655	0.2437052681692018	1.046719799119332	-0.12419559333594021	1.000000000002558	0.11950967483326203	1.4848335237180468
5.243398390970927e-12	0.052686678523678476	0.30251699405850907	1.0485228807513132	-0.16044629686194245	1.0000000000025722	0.14207069719656662	1.962480159425679
7.41528511743635e-12	0.06593693118271249	0.3622749752981811	1.0467523741108746	-0.20203178282556067	1.0000000000026006	0.16024319247261953	2.5066416733536485
1.0486796781941854e-11	0.07997552909554229	0.4191216610646	1.0419768064690293	-0.24479772120641385	1.0000000000026148	0.17432393985818617	3.1182631031737387
1.48305702348727e-11	0.09413803387049274	0.4701259802270261	1.035251611804818	-0.28983732190183753	1.0000000000026148	0.18028865832518814	3.7505962052446407
2.0973593563883708e-11	0.10784147241160924	0.5137328897198756	1.0278720281762626	-0.33019818265509926	1.0000000000026148	0.1835347070647757	4.377629875265404
2.96611404697454e-11	0.12067201840165453	0.5496790591840615	1.020775986109578	-0.371073121808144	1.0000000000026148	0.17860593737591612	4.99734270564932
4.1947187127767415e-11	0.13239736058113682	0.57855201177059	1.0145823748383918	-0.40327314657311675	1.0000000000025864	0.17527886519747304	5.535194948415448
5.93222809394908e-11	0.1429320762319209	0.6013693754462226	1.0094595409409068	-0.43649521495045107	1.0000000000025864	0.16487416049577108	6.079138477952666
8.389437425553483e-11	0.15228031140074355	0.6191830489944685	1.0052880163591937	-0.45998232502163816	1.0000000000026006	0.15920072397283014	6.496132162137272
1.186445618789816e-10	0.16053474475927487	0.633093637287919	1.0020674985084306	-0.48561155912688614	1.0000000000026006	0.14748207816103331	6.946785899775502
1.6778874851106966e-10	0.1677986330357431	0.6439390846096149	0.9995900084669118	-0.5023479567527023	1.0000000000026006	0.14159112785691264	7.2600268856479815
2.372891237579632e-10	0.1741884263950773	0.6524076824385698	0.9976432589321201	-0.5218149240717613	1.0000000000026006	0.1305927583668094	7.624194615076004
3.355774970221393e-10	0.17981655959174747	0.6590533115576598	0.9961282271148225	-0.5338889381907213	1.0000000000026148	0.1251643733669381	7.860881775927387
4.745782475159264e-10	0.18478778249336797	0.6643144835915633	0.9949588460839954	-0.5487323822027719	1.0000000000026148	0.11558210138879144	8.153220830281178
6.711549940442786e-10	0.1891922824627274	0.6684994626877909	0.9940455428924903	-0.5576733560081286	1.0000000000026148	0.11082610667966275	8.335653324856874
9.491564950318527e-10	0.19310944861749268	0.6718630281760447	0.9933364601060728	-0.5691372509833545	1.0000000000026432	0.10272577719268994	8.571082899344287
1.3423099880885573e-9	0.19660459147646853	0.6745696728746715	0.9927593854537095	-0.5759442601060925	1.0000000000026432	0.09862541276857861	8.714773147123726
1.8983129900637054e-9	0.19973669615290834	0.6767786061513359	0.9923084150744211	-0.5849421889802451	1.0000000000026077	0.09183641717109037	8.905922117017258
2.6846199761771146e-9	0.20255353239250495	0.6785860827680068	0.9919418158974336	-0.5902601412078412	1.0000000000025935	0.08832594156016604	9.021418494370492
3.796625980127411e-9	0.20509720767687423	0.6800819082130953	0.9916493566252982	-0.5974438559624642	1.0000000000025793	0.08263805225063048	9.178277877230858
5.369239952354229e-9	0.20740194322281158	0.6813222449811978	0.991406540901117	-0.6016931652242343	1.0000000000025722	0.07962907975696232	9.272779737601034
7.593251960254822e-9	0.20949819460915187	0.6823626720990159	0.9912103812097771	-0.6075228610548171	1.000000000002565	0.07483981104419879	9.402967649690128
1.0738479904708458e-8	0.21141067527807555	0.6832359118515052	0.9910439449800603	-0.6109851305320277	1.0000000000025722	0.0722507813194766	9.481505261119525
1.5186503920509643e-8	0.2131617907090433	0.6839709763619073	0.99089180841528	-0.615787490920602	1.0000000000025864	0.0681834854413057	9.590764276859904
2.1476959809416917e-8	0.21476951602692484	0.6845911942851872	0.9907513235517763	-0.6186554736617307	1.0000000000026006	0.0659357206234561	9.656913300737429
3.037300784101929e-8	0.21625008383609184	0.6851321853300982	0.9906539690175578	-0.6226676574039502	1.0000000000026077	0.06246452792614776	9.749619674684148
4.2953919618833833e-8	0.21761707904912797	0.6855962684055905	0.9905678097794961	-0.6250801188143393	1.0000000000026077	0.06051614959125051	9.806043122684425
6.074601568203857e-8	0.21888290245771458	0.6860002438903674	0.9904966842400202	-0.6284739349622077	1.0000000000025864	0.05752630892815924	9.885492877179473
8.590783923766767e-8	0.22005762819047126	0.6863509695140797	0.9904327489642798	-0.6305291787680116	1.0000000000026006	0.05582179074606741	9.934134761098953
1.2149203136407715e-7	0.2211507373787538	0.6866608251880431	0.990380135645834	-0.6334330979010212	1.000000000002622	0.05322772728702163	10.002874045658974
1.7181567847533533e-7	0.22216993635779136	0.6869342970520176	0.9903324863390165	-0.6352051456943135	1.000000000002629	0.051729151357704506	10.045237032406606
2.429840627281543e-7	0.22312266135550562	0.6871799871754352	0.990290483451005	-0.6377169238923779	1.0000000000026077	0.04946306328305683	10.105257569618386
3.4363135695067067e-7	0.2240148939997203	0.687402358181175	0.9902511654114029	-0.6392629095110891	1.0000000000026148	0.04813944867008568	10.142529529184435
4.859681254563086e-7	0.2248524120582711	0.6876130071838737	0.9902256577568838	-0.6414598927950279	1.0000000000026432	0.046153114388846506	10.195444710514408
6.872627139013413e-7	0.2256401291287103	0.6878144212892359	0.9902049426679937	-0.6428272867956477	1.0000000000026574	0.04498713449358771	10.228632747851588
9.719362509126172e-7	0.22638271297111617	0.6880271486037906	0.9902169637976194	-0.6447747983287275	1.0000000000026432	0.043252350275062135	10.275831972030861
1.3745254278026827e-6	0.22708431601029244	0.6882524995034691	0.9902458730376558	-0.6460081357576932	1.0000000000026432	0.042244363745775004	10.305895350907868
1.9438725018252344e-6	0.2277495434597529	0.6884808570950218	0.9902416331161681	-0.6477629858986744	1.0000000000026361	0.04071787119634718	10.348616418522813
2.7490508556053653e-6	0.22838171873765567	0.688744173379999	0.990245423308062	-0.6489052134899258	1.0000000000026361	0.03983895989007391	10.376506050289876
3.887745003650469e-6	0.22898435095663072	0.6890782756077458	0.9902975139147271	-0.6505352660763011	1.0000000000026361	0.03854300953144563	10.416231140208186
5.498101711210731e-6	0.22956101826608333	0.6895030452063384	0.9903789918733958	-0.6516527600816149	1.0000000000026361	0.037850285124722216	10.44340150776522
7.775490007300937e-6	0.23011562123348783	0.6900529397345192	0.9904852490262135	-0.65324507345766	1.000000000002622	0.03680786627685828	10.482057004319739
1.0996203422421461e-5	0.23065006614623645	0.6908019079274927	0.9906601951221073	-0.6544388498079381	1.000000000002629	0.03636305811955465	10.510753984469584
1.5550980014601875e-5	0.23116579072234578	0.6918342070834527	0.9909156648015628	-0.6561417780112038	1.0000000000026432	0.035692429072248455	10.551624410100537
2.1992406844842923e-5	0.23165941560303593	0.6932965990850883	0.9912919659609928	-0.6576095441817991	1.0000000000026645	0.03568705490329016	10.58625400503885
3.110196002920375e-5	0.23211661786927218	0.6955103663900974	0.9920032285551438	-0.6597354386265053	1.0000000000027356	0.03577492776359237	10.636214452423916
4.3984813689685845e-5	0.23248418482520328	0.6994673824741433	0.9940002533792043	-0.6620548647379128	1.0000000000029061	0.03741251773623033	10.690001507008287
6.22039200584075e-5	0.23253897615508368	0.7094550482830755	1.0013920209638139	-0.6662220486148231	1.0000000000034568	0.04323299966825256	10.78343410470501
8.796962737937169e-5	0.2315307226451847	0.7365463781447881	1.0198625609504328	-0.6745805588928402	1.0000000000050697	0.06196581925194855	10.979834872266025
0.000124407840116815	0.22800959953742772	0.7963585035193574	1.0476164052791888	-0.6941920862377566	1.0000000000083986	0.10216641728160036	11.416687353849357
0.00017593925475874338	0.22037162070589544	0.8947562362412995	1.0695851454466254	-0.7325711455718391	1.000000000013106	0.16218509066946085	12.344400970279139
0.00024881568023363	0.20816771648123694	1.0148335762179919	1.0685410241841824	-0.7939751411564235	1.0000000000174865	0.2208584350615692	13.866094669678414
0.00035187850951748676	0.193125254413404	1.1282422880538974	1.0452949790948032	-0.8731971080929384	1.0000000000197034	0.2550451799609579	15.958336982811836
0.00049763136046726	0.17794901098033689	1.2161299132002723	1.0152871546349629	-0.9598397602347419	1.0000000000192877	0.2562901529655308	18.490116233973385
0.0007037570190349735	0.1645548408526316	1.2748447003715153	0.9897620470343553	-1.042804514807246	1.0000000000170495	0.23204018556426953	21.01148262508633
0.00099526272093452	0.1537372544519101	1.3103957986053798	0.9718159799903411	-1.1154312675947446	1.000000000014019	0.1949645310106356	23.52205423285825
0.001407514038069947	0.14548128419831774	1.3311476304331116	0.9609926965065783	-1.1752481475195307	1.000000000010953	0.15589948291358002	25.598690398736036
0.00199052544186904	0.139369477595588	1.3428453790193196	0.9544997348708925	-1.222648212443413	1.0000000000082885	0.12019716657590696	27.459594083086497
0.002815028076139894	0.13491489337649676	1.3494374052365936	0.9506631301200426	-1.2592020814113605	1.0000000000061462	0.0902353238252338	28.856211453025413
0.00398105088373808	0.13170965902966653	1.3532236103214972	0.9484274264256976	-1.287325853654691	1.0000000000044729	0.0658977566668062	30.05638322123688
0.005630056152279788	0.12942125182798192	1.3555845169972924	0.9471904048974434	-1.308380702626553	1.0000000000032259	0.047203814370739394	30.914256948826797
0.00796210176747616	0.12777962744719384	1.3570280590940573	0.9463700924343601	-1.3248442067793444	1.0000000000023022	0.032183852314713324	31.656663498731476
0.011260112304559576	0.12663453863989382	1.357914546354043	0.9459613255505755	-1.3368115287362903	1.0000000000016325	0.021103017617752906	32.16705313535092
0.01592420353495232	0.12582288131248076	1.3584845453732886	0.9457082346320888	-1.3466466951455853	1.0000000000011493	0.011837850227702784	32.6276584514768
0.022520224609119153	0.1252485254123557	1.3588677621395506	0.9455576517549082	-1.3535511882411035	1.0000000000007994	0.005316573898447752	32.93178870466178
0.03184840706990464	0.12484265441607023	1.3591407347988973	0.9454762022742035	-1.359653742234133	1.0000000000005542	-0.0005130074352364122	33.22304351935509
0.045040449218238306	0.12455302993994555	1.3593696256309213	0.9454417446373358	-1.363752004957477	1.000000000000373	-0.004382379326556052	33.40298987973854
0.06369681413980928	0.12434853315782246	1.3595968230247797	0.9454608942220023	-1.367690179837001	1.000000000000247	-0.008093356812220787	33.581738549256485
0.09008089843647661	0.12423383736272209	1.359953835450784	0.9458736146413267	-1.3702217064980484	1.0000000000001599	-0.010267871047263455	33.66924050831703
0.12739362827961856	0.1242632888506166	1.3625103738954696	0.9507213665743836	-1.3731051385169684	1.000000000000096	-0.010594764621499664	33.738035843621574
0.18016179687295322	0.12456241179745098	1.3711918077850607	0.9674979912725934	-1.3756797132916896	1.0000000000000533	-0.004487905506629586	33.61337656753737
0.2547872565592371	0.12496001274942853	1.3819900196808836	0.9895687566979426	-1.378662205174003	1.0000000000000258	0.0033278145068793563	32.947044388200254
0.36032359374590645	0.1250872300074638	1.3862512292979172	1.0000261356444187	-1.3801125231862024	1.0000000000000098	0.006138706111714187	30.386501754506927
0.5095745131184742	0.12506200056120154	1.3862677025536332	1.0000303954402245	-1.3812296056801388	1.0000000000000018	0.005038096873494213	25.403565677837044
0.7206471874918129	0.12502632073612635	1.3862909992552819	1.0001103176668984	-1.382809398893352	0.9999999999999902	0.003481600361930015	18.35662989777232
