# Excitation multiplet: (1, 3, 1, 1) , index=1
# 1 energy | 2 spectral function
-2.038298052473897	0.0031841009562271778
-1.0191490262369485	0.06625365146893117
-0.5095745131184742	0.16716927701334922
-0.2547872565592371	0.31219402509523103
-0.12739362827961856	0.4679308703744099
-0.06369681413980928	0.589382023106579
-0.03184840706990464	0.6557982513499924
-0.01592420353495232	0.6900830837913653
-0.00796210176747616	0.7015281175034302
-0.00398105088373808	0.705018427338047
-0.00199052544186904	0.7040969316320342
-0.00099526272093452	0.7012710908179027
-0.00049763136046726	0.6973025806529267
-0.00024881568023363	0.6927482270198776
-0.000124407840116815	0.687933861932417
-6.22039200584075e-5	0.6830116733869444
-3.110196002920375e-5	0.6780544467545995
-1.5550980014601875e-5	0.6730976650123686
-7.775490007300937e-6	0.6681587471314708
-3.887745003650469e-6	0.6632462346421886
-1.9438725018252344e-6	0.6580238409889809
1.3745254278026827e-6	0.6748520104709711
2.7490508556053653e-6	0.6797817361280019
5.498101711210731e-6	0.6846522422611842
1.0996203422421461e-5	0.6897712209254231
2.1992406844842923e-5	0.6949397983939756
4.3984813689685845e-5	0.7001711212133628
8.796962737937169e-5	0.7054913145777674
0.00017593925475874338	0.7109527558703307
0.00035187850951748676	0.7166616856537605
0.0007037570190349735	0.7228326189555462
0.001407514038069947	0.7298161000123368
0.002815028076139894	0.7378942842842138
0.005630056152279788	0.7469333533353096
0.011260112304559576	0.7573568082825892
0.022520224609119153	0.7709705106117878
0.045040449218238306	0.7865746889469248
0.09008089843647661	0.7733741602365121
0.18016179687295322	0.6465082411021996
0.36032359374590645	0.37634632832093456
0.7206471874918129	0.1585074979647561
1.4412943749836258	0.046993081009200244
2.8825887499672516	4.061723403545471e-9
